

   Time         sum(rTop)     sum(rRoot)    sum(vTop)     sum(vRoot)     sum(vBot)    hTop       hRoot      hBot      A-level
    [T]           [L]           [L]           [L]           [L]            [L]        [L]         [L]       [L] 

     1.00000  0.000000E+00  0.000000E+00  0.327174E-06  0.000000E+00 -0.161489E+01    -47.592    -39.934    -18.123       1
     2.00000  0.190030E-01  0.000000E+00  0.190030E-01  0.000000E+00 -0.284143E+01    -60.500    -51.674    -23.264       2
     3.00000  0.515550E-01  0.000000E+00  0.515549E-01  0.000000E+00 -0.380971E+01    -70.467    -60.828    -28.311       3
     4.00000  0.883120E-01  0.000000E+00  0.883118E-01  0.000000E+00 -0.460001E+01    -78.531    -68.299    -32.832       4
     5.00000  0.110018E+00  0.000000E+00  0.110018E+00  0.000000E+00 -0.526199E+01    -84.098    -74.102    -36.893       5
     6.00000  0.124433E+00  0.000000E+00  0.124433E+00  0.000000E+00 -0.583370E+01    -88.759    -78.961    -40.594       6
     7.00000  0.137100E+00  0.000000E+00  0.137100E+00  0.000000E+00 -0.633631E+01    -93.086    -83.301    -44.108       7
     8.00000  0.162752E+00  0.000000E+00  0.162752E+00  0.000000E+00 -0.677775E+01    -98.598    -87.908    -47.164       8
     9.00000  0.180444E+00  0.000000E+00  0.180444E+00  0.000000E+00 -0.717746E+01   -102.292    -91.772    -50.072       9
    10.00000  0.200176E+00  0.000000E+00  0.200176E+00  0.000000E+00 -0.754407E+01   -106.314    -95.517    -52.907      10
    11.00000  0.237727E+00  0.000000E+00  0.237727E+00  0.000000E+00 -0.787903E+01   -112.440   -100.039    -55.602      11
    12.00000  0.279618E+00  0.000000E+00  0.279618E+00  0.000000E+00 -0.818463E+01   -117.829   -104.449    -58.078      12
    13.00000  0.319120E+00  0.000000E+00  0.319120E+00  0.000000E+00 -0.846490E+01   -122.139   -108.380    -60.286      13
    14.00000  0.362870E+00  0.000000E+00  0.362870E+00  0.000000E+00 -0.872877E+01   -127.154   -112.404    -62.525      14
    15.00000  0.381768E+00  0.000000E+00  0.381768E+00  0.000000E+00 -0.897812E+01   -127.165   -114.626    -64.731      15
    16.00000  0.404037E+00  0.000000E+00  0.404037E+00  0.000000E+00 -0.921323E+01   -129.824   -117.142    -66.892      16
    17.00000  0.452676E+00  0.000000E+00  0.452676E+00  0.000000E+00 -0.943445E+01   -137.621   -121.546    -68.992      17
    18.00000  0.483557E+00  0.000000E+00  0.483557E+00  0.000000E+00 -0.964228E+01   -139.246   -124.425    -71.013      18
    19.00000  0.507666E+00  0.000000E+00  0.507666E+00  0.000000E+00 -0.983735E+01   -140.670   -126.704    -72.930      19
    20.00000  0.520690E+00  0.000000E+00  0.520690E+00  0.000000E+00 -0.100205E+02   -140.638   -128.189    -74.713      20
    21.00000  0.543830E+00  0.000000E+00  0.543830E+00  0.000000E+00 -0.101937E+02   -144.063   -130.543    -76.437      21
    22.00000  0.583157E+00  0.000000E+00  0.583157E+00  0.000000E+00 -0.103605E+02   -150.378   -134.115    -78.186      22
    23.00000  0.605519E+00  0.000000E+00  0.605519E+00  0.000000E+00 -0.105213E+02   -150.819   -136.228    -79.914      23
    24.00000  0.634465E+00  0.000000E+00  0.634465E+00  0.000000E+00 -0.106761E+02   -154.334   -138.773    -81.620      24
    25.00000  0.653914E+00  0.000000E+00  0.653914E+00  0.000000E+00 -0.108250E+02   -154.950   -140.549    -83.297      25
    26.00000  0.670804E+00  0.000000E+00  0.670804E+00  0.000000E+00 -0.109680E+02   -156.006   -142.137    -84.943      26
    27.00000  0.693282E+00  0.000000E+00  0.693282E+00  0.000000E+00 -0.111055E+02   -159.087   -143.685    -86.552      27
    28.00000  0.715219E+00  0.000000E+00  0.715219E+00  0.000000E+00 -0.112373E+02   -161.415   -145.762    -88.122      28
    29.00000  0.743209E+00  0.000000E+00  0.743209E+00  0.000000E+00 -0.113638E+02   -165.429   -148.346    -89.649      29
    30.00000  0.766351E+00  0.000000E+00  0.766351E+00  0.000000E+00 -0.114851E+02   -167.124   -150.444    -91.129      30
    31.00000  0.811170E+00  0.000000E+00  0.811170E+00  0.000000E+00 -0.116013E+02   -175.942   -154.453    -92.554      31
    32.00000  0.866956E+00  0.000000E+00  0.866956E+00  0.000000E+00 -0.117127E+02   -185.388   -159.318    -93.916      32
    33.00000  0.910792E+00  0.000000E+00  0.910792E+00  0.000000E+00 -0.118195E+02   -188.136   -162.828    -95.206      33
    34.00000  0.944666E+00  0.000000E+00  0.944666E+00  0.000000E+00 -0.119230E+02   -188.559   -165.211    -96.574      34
    35.00000  0.979213E+00  0.000000E+00  0.979213E+00  0.000000E+00 -0.120241E+02   -191.079   -167.604    -97.921      35
    36.00000  0.101064E+01  0.000000E+00  0.101064E+01  0.000000E+00 -0.121228E+02   -192.745   -169.726    -99.250      36
    37.00000  0.103930E+01  0.000000E+00  0.103930E+01  0.000000E+00 -0.122192E+02   -194.031   -171.597   -100.566      37
    38.00000  0.106707E+01  0.000000E+00  0.106707E+01  0.000000E+00 -0.123133E+02   -195.714   -173.424   -101.871      38
    39.00000  0.110288E+01  0.000000E+00  0.110288E+01  0.000000E+00 -0.124050E+02   -201.091   -176.134   -103.165      39
    40.00000  0.113348E+01  0.000000E+00  0.113349E+01  0.000000E+00 -0.124945E+02   -202.745   -178.311   -104.448      40
    41.00000  0.115926E+01  0.000000E+00  0.115926E+01  0.000000E+00 -0.125818E+02   -203.138   -179.956   -105.720      41
    42.00000  0.117834E+01  0.000000E+00  0.117834E+01  0.000000E+00 -0.126668E+02   -201.863   -180.905   -106.979      42
    43.00000  0.119555E+01  0.000000E+00  0.119555E+01  0.000000E+00 -0.127496E+02   -201.586   -181.742   -108.226      43
    44.00000  0.121423E+01  0.000000E+00  0.121423E+01  0.000000E+00 -0.128302E+02   -202.832   -182.861   -109.459      44
    45.00000  0.124689E+01  0.000000E+00  0.124689E+01  0.000000E+00 -0.129087E+02   -210.260   -185.643   -110.676      45
    46.00000  0.129566E+01  0.000000E+00  0.129566E+01  0.000000E+00 -0.129850E+02   -222.494   -190.289   -111.878      46
    47.00000  0.133688E+01  0.000000E+00  0.133688E+01  0.000000E+00 -0.130593E+02   -226.542   -193.918   -113.063      47
    48.00000  0.138192E+01  0.000000E+00  0.138192E+01  0.000000E+00 -0.131314E+02   -233.413   -197.819   -114.230      48
    49.00000  0.143439E+01  0.000000E+00  0.143439E+01  0.000000E+00 -0.132015E+02   -243.828   -202.511   -115.377      49
    50.00000  0.148340E+01  0.000000E+00  0.148340E+01  0.000000E+00 -0.132697E+02   -249.993   -206.732   -116.502      50
    51.00000  0.154710E+01  0.000000E+00  0.154710E+01  0.000000E+00 -0.133358E+02   -267.111   -212.875   -117.604      51
    52.00000  0.164190E+01  0.000000E+00  0.164190E+01  0.000000E+00 -0.134001E+02   -308.541   -223.563   -118.679      52
    53.00000  0.168940E+01  0.000000E+00  0.168940E+01  0.000000E+00 -0.134625E+02   -290.600   -225.430   -119.727      53
    54.00000  0.178343E+01  0.000000E+00  0.178343E+01  0.000000E+00 -0.135231E+02   -341.933   -235.749   -120.815      54
    55.00000  0.191350E+01  0.000000E+00  0.191350E+01  0.000000E+00 -0.135828E+02   -451.120   -252.970   -121.954      55
    56.00000  0.203612E+01  0.000000E+00  0.203612E+01  0.000000E+00 -0.136414E+02   -543.324   -270.258   -123.067      56
    57.00000  0.216209E+01  0.000000E+00  0.216209E+01  0.000000E+00 -0.136991E+02   -696.975   -289.512   -124.167      57
    58.00000  0.227840E+01  0.000000E+00  0.227840E+01  0.000000E+00 -0.137560E+02   -860.803   -307.534   -125.259      58
    59.00000  0.237324E+01  0.000000E+00  0.237324E+01  0.000000E+00 -0.138118E+02   -874.872   -320.991   -126.346      59
    60.00000  0.249185E+01  0.000000E+00  0.249186E+01  0.000000E+00 -0.138668E+02  -1394.540   -342.932   -127.429      60
    61.00000  0.260512E+01  0.000000E+00  0.260512E+01  0.000000E+00 -0.139208E+02  -2084.517   -366.522   -128.510      61
    62.00000  0.265999E+01  0.000000E+00  0.265999E+01  0.000000E+00 -0.139740E+02  -1159.332   -367.744   -129.589      62
    63.00000  0.274525E+01  0.000000E+00  0.274525E+01  0.000000E+00 -0.140262E+02  -1528.922   -380.832   -130.667      63
    64.00000  0.286416E+01  0.000000E+00  0.286416E+01  0.000000E+00 -0.140775E+02  -4101.144   -415.413   -131.745      64
    65.00000  0.296659E+01  0.000000E+00  0.296659E+01  0.000000E+00 -0.141279E+02  -7069.961   -449.755   -132.823      65
    66.00000  0.310093E+01  0.000000E+00  0.310093E+01  0.000000E+00 -0.141773E+02 -63762.344   -557.480   -133.902      66
    67.00000  0.324746E+01  0.000000E+00  0.323769E+01  0.000000E+00 -0.142260E+02***********   -869.404   -134.982      67
    68.00000  0.340366E+01  0.000000E+00  0.332188E+01  0.000000E+00 -0.142738E+02***********   -922.726   -136.063      68
    69.00000  0.353265E+01  0.000000E+00  0.339569E+01  0.000000E+00 -0.143207E+02***********   -953.521   -137.145      69
    70.00000  0.367186E+01  0.000000E+00  0.346257E+01  0.000000E+00 -0.143666E+02***********   -969.472   -138.228      70
    71.00000  0.381129E+01  0.000000E+00  0.352657E+01  0.000000E+00 -0.144114E+02***********   -990.854   -139.311      71
    72.00000  0.391920E+01  0.000000E+00  0.358774E+01  0.000000E+00 -0.144554E+02***********  -1011.431   -140.395      72
    73.00000  0.404748E+01  0.000000E+00  0.364573E+01  0.000000E+00 -0.144984E+02***********  -1027.954   -141.479      73
    74.00000  0.416632E+01  0.000000E+00  0.370142E+01  0.000000E+00 -0.145406E+02***********  -1044.705   -142.562      74
    75.00000  0.429309E+01  0.000000E+00  0.375520E+01  0.000000E+00 -0.145819E+02***********  -1054.084   -143.647      75
    76.00000  0.440435E+01  0.000000E+00  0.380770E+01  0.000000E+00 -0.146222E+02***********  -1068.409   -144.724      76
    77.00000  0.451557E+01  0.000000E+00  0.385862E+01  0.000000E+00 -0.146617E+02***********  -1079.669   -145.806      77
    78.00000  0.472331E+01  0.000000E+00  0.390811E+01  0.000000E+00 -0.147002E+02***********  -1094.120   -146.877      78
    79.00000  0.486617E+01  0.000000E+00  0.395623E+01  0.000000E+00 -0.147378E+02***********  -1110.458   -147.947      79
    80.00000  0.505119E+01  0.000000E+00  0.400225E+01  0.000000E+00 -0.147745E+02***********  -1108.723   -149.012      80
    81.00000  0.521936E+01  0.000000E+00  0.404719E+01  0.000000E+00 -0.148102E+02***********  -1114.585   -150.071      81
    82.00000  0.539280E+01  0.000000E+00  0.409153E+01  0.000000E+00 -0.148451E+02***********  -1087.313   -151.128      82
    83.00000  0.560437E+01  0.000000E+00  0.413548E+01  0.000000E+00 -0.148791E+02***********  -1097.505   -152.249      83
    84.00000  0.589820E+01  0.000000E+00  0.417912E+01  0.000000E+00 -0.149125E+02***********  -1109.767   -153.467      84
    85.00000  0.618730E+01  0.000000E+00  0.422224E+01  0.000000E+00 -0.149455E+02***********  -1122.307   -154.647      85
    86.00000  0.642054E+01  0.000000E+00  0.426448E+01  0.000000E+00 -0.149780E+02***********  -1132.822   -155.808      86
    87.00000  0.661610E+01  0.000000E+00  0.430567E+01  0.000000E+00 -0.150101E+02***********  -1141.062   -156.957      87
    88.00000  0.677772E+01  0.000000E+00  0.434596E+01  0.000000E+00 -0.150418E+02***********  -1148.793   -158.098      88
    89.00000  0.694575E+01  0.000000E+00  0.438557E+01  0.000000E+00 -0.150730E+02***********  -1157.293   -159.231      89
    90.00000  0.707946E+01  0.000000E+00  0.442453E+01  0.000000E+00 -0.151037E+02***********  -1166.369   -160.357      90
    91.00000  0.675945E+01  0.869360E-01  0.410453E+01  0.759509E-01 -0.151341E+02   -312.889   -530.907   -161.478      91
    92.00000  0.665945E+01  0.253488E+00  0.400453E+01  0.242477E+00 -0.151641E+02   -395.944   -526.217   -162.591      92
    93.00000  0.656945E+01  0.374420E+00  0.391453E+01  0.363409E+00 -0.151936E+02   -394.218   -527.197   -163.698      93
    94.00000  0.656945E+01  0.529007E+00  0.391453E+01  0.517996E+00 -0.152226E+02   -580.458   -564.645   -164.797      94
    95.00000  0.656945E+01  0.772099E+00  0.391453E+01  0.754135E+00 -0.152512E+02   -761.145   -650.391   -165.890      95
    96.00000  0.656945E+01  0.106807E+01  0.391453E+01  0.979106E+00 -0.152794E+02  -1024.137   -789.137   -166.976      96
    97.00000  0.652945E+01  0.125615E+01  0.387453E+01  0.111059E+01 -0.153072E+02   -809.682   -852.818   -168.056      97
    98.00000  0.638945E+01  0.150797E+01  0.373453E+01  0.128185E+01 -0.153345E+02   -466.342   -842.242   -169.130      98
    99.00000  0.638945E+01  0.173660E+01  0.373453E+01  0.142894E+01 -0.153615E+02   -879.401   -918.039   -170.196      99
   100.00000  0.638945E+01  0.206382E+01  0.373453E+01  0.157535E+01 -0.153880E+02  -1168.593  -1019.407   -171.255     100
   101.00000  0.633945E+01  0.229802E+01  0.368453E+01  0.167520E+01 -0.154141E+02   -795.074  -1039.254   -172.308     101
   102.00000  0.613945E+01  0.245765E+01  0.348453E+01  0.176768E+01 -0.154398E+02   -373.390   -932.536   -173.354     102
   103.00000  0.613945E+01  0.271518E+01  0.348453E+01  0.192278E+01 -0.154652E+02   -769.266   -978.664   -174.395     103
   104.00000  0.610945E+01  0.301800E+01  0.345453E+01  0.206698E+01 -0.154901E+02   -807.657  -1050.953   -175.429     104
   105.00000  0.560145E+01  0.333755E+01  0.294653E+01  0.224550E+01 -0.155147E+02   -196.040   -867.681   -176.458     105
   106.00000  0.550145E+01  0.353891E+01  0.284653E+01  0.240058E+01 -0.155388E+02   -327.447   -811.123   -177.482     106
   107.00000  0.550145E+01  0.373557E+01  0.284653E+01  0.256236E+01 -0.155625E+02   -538.377   -844.418   -178.500     107
   108.00000  0.550145E+01  0.401241E+01  0.284653E+01  0.276152E+01 -0.155858E+02   -751.549   -941.584   -179.514     108
   109.00000  0.546145E+01  0.424758E+01  0.280653E+01  0.290366E+01 -0.156087E+02   -717.161  -1025.802   -180.524     109
   110.00000  0.546145E+01  0.448763E+01  0.280653E+01  0.301039E+01 -0.156312E+02  -1065.240  -1113.720   -181.530     110
   111.00000  0.535145E+01  0.470022E+01  0.269653E+01  0.310668E+01 -0.156534E+02   -545.851  -1089.164   -182.533     111
   112.00000  0.408146E+01  0.495525E+01  0.142653E+01  0.327753E+01 -0.156752E+02    -83.856   -651.710   -183.533     112
   113.00000  0.408146E+01  0.526388E+01  0.142653E+01  0.356184E+01 -0.156966E+02   -265.177   -568.861   -184.529     113
   114.00000  0.408146E+01  0.558060E+01  0.142653E+01  0.386659E+01 -0.157176E+02   -406.018   -624.128   -185.522     114
   115.00000  0.408146E+01  0.598370E+01  0.142653E+01  0.422145E+01 -0.157382E+02   -610.593   -758.803   -186.513     115
   116.00000  0.405145E+01  0.627346E+01  0.139653E+01  0.444732E+01 -0.157584E+02   -699.069   -907.719   -187.501     116
   117.00000  0.401145E+01  0.653731E+01  0.135653E+01  0.460876E+01 -0.157782E+02   -727.711  -1011.547   -188.489     117
   118.00000  0.401145E+01  0.692721E+01  0.135653E+01  0.474856E+01 -0.157976E+02  -1116.250  -1141.800   -189.478     118
   119.00000  0.395145E+01  0.714612E+01  0.129653E+01  0.482565E+01 -0.158167E+02   -738.248  -1156.182   -190.471     119
   120.00000  0.395145E+01  0.745032E+01  0.129653E+01  0.491150E+01 -0.158353E+02  -1159.305  -1205.344   -191.488     120
   121.00000  0.395145E+01  0.783894E+01  0.129653E+01  0.498036E+01 -0.158536E+02  -1397.636  -1257.250   -192.673     121
   122.00000  0.395145E+01  0.825292E+01  0.129653E+01  0.503343E+01 -0.158718E+02  -1512.742  -1288.887   -193.833     122
   123.00000  0.395145E+01  0.872260E+01  0.129653E+01  0.508139E+01 -0.158897E+02  -1568.076  -1309.403   -194.962     123
   124.00000  0.314145E+01  0.889845E+01  0.486533E+00  0.516333E+01 -0.159074E+02   -133.262   -911.934   -196.075     124
   125.00000  0.280145E+01  0.904981E+01  0.146532E+00  0.528339E+01 -0.159250E+02   -167.969   -725.579   -197.174     125
   126.00000  0.280145E+01  0.933144E+01  0.146532E+00  0.553134E+01 -0.159424E+02   -339.933   -713.667   -198.263     126
   127.00000  0.280145E+01  0.976734E+01  0.146532E+00  0.589145E+01 -0.159596E+02   -542.933   -828.606   -199.343     127
   128.00000  0.280145E+01  0.101878E+02  0.146532E+00  0.614153E+01 -0.159765E+02   -857.425  -1023.580   -200.414     128
   129.00000  0.280145E+01  0.106535E+02  0.146532E+00  0.628683E+01 -0.159933E+02  -1184.600  -1207.481   -201.479     129
   130.00000  0.280145E+01  0.110195E+02  0.146532E+00  0.635434E+01 -0.160099E+02  -1413.468  -1292.102   -202.538     130
   131.00000  0.275145E+01  0.113327E+02  0.965324E-01  0.641311E+01 -0.160264E+02   -849.735  -1283.413   -203.592     131
   132.00000  0.257145E+01  0.115669E+02 -0.834676E-01  0.649290E+01 -0.160426E+02   -410.918  -1183.206   -204.639     132
   133.00000  0.192145E+01  0.117071E+02 -0.733468E+00  0.657179E+01 -0.160588E+02   -145.091   -909.566   -205.682     133
   134.00000  0.361454E+00  0.119296E+02 -0.229347E+01  0.675525E+01 -0.160747E+02    -56.093   -492.113   -206.719     134
   135.00000 -0.104855E+01  0.122329E+02 -0.370347E+01  0.705381E+01 -0.160904E+02    -47.873   -209.760   -207.750     135
   136.00000 -0.299815E+01  0.125144E+02 -0.565307E+01  0.733528E+01 -0.161060E+02    -28.761    -66.766   -208.776     136
   137.00000 -0.328815E+01  0.128322E+02 -0.594307E+01  0.765308E+01 -0.161214E+02    -75.503    -90.756   -209.797     137
   138.00000 -0.385815E+01  0.130798E+02 -0.651307E+01  0.790064E+01 -0.161366E+02    -67.694    -91.645   -210.812     138
   139.00000 -0.573775E+01  0.134234E+02 -0.839267E+01  0.824430E+01 -0.161516E+02    -27.305    -47.382   -211.822     139
   140.00000 -0.573775E+01  0.137127E+02 -0.839267E+01  0.853362E+01 -0.161665E+02    -85.576    -80.778   -212.826     140
   141.00000 -0.573775E+01  0.140388E+02 -0.839267E+01  0.885967E+01 -0.161812E+02   -117.352   -107.377   -213.825     141
   142.00000 -0.899774E+01  0.141783E+02 -0.116527E+02  0.899918E+01 -0.161957E+02     -9.914    -18.824   -214.820     142
   143.00000 -0.102677E+02  0.145055E+02 -0.129227E+02  0.932642E+01 -0.162100E+02    -27.194    -31.468   -215.809     143
   144.00000 -0.102677E+02  0.149463E+02 -0.129227E+02  0.976717E+01 -0.162242E+02    -75.138    -64.436   -216.791     144
   145.00000 -0.115377E+02  0.154323E+02 -0.141927E+02  0.102532E+02 -0.162382E+02    -36.592    -47.840   -217.762     145
   146.00000 -0.115377E+02  0.159535E+02 -0.141927E+02  0.107744E+02 -0.162521E+02    -90.604    -78.616   -218.707     146
   147.00000 -0.128077E+02  0.164008E+02 -0.154627E+02  0.112217E+02 -0.162657E+02    -39.924    -55.167   -219.572     147
   148.00000 -0.140777E+02  0.169372E+02 -0.167327E+02  0.117581E+02 -0.162793E+02    -35.016    -45.512   -220.206     148
   149.00000 -0.140777E+02  0.175015E+02 -0.167327E+02  0.123224E+02 -0.162928E+02    -90.766    -78.423   -220.295     149
   150.00000 -0.153477E+02  0.180628E+02 -0.180027E+02  0.128837E+02 -0.163064E+02    -41.002    -57.134   -219.449     150
   151.00000 -0.153477E+02  0.186579E+02 -0.180027E+02  0.134788E+02 -0.163203E+02   -103.250    -89.401   -216.926     151
   152.00000 -0.153477E+02  0.191288E+02 -0.180027E+02  0.139497E+02 -0.163350E+02   -144.324   -118.642   -211.966     152
   153.00000 -0.191577E+02  0.196221E+02 -0.218127E+02  0.144430E+02 -0.163505E+02     -7.565    -15.315   -205.015     153
   154.00000 -0.191577E+02  0.199571E+02 -0.218127E+02  0.147780E+02 -0.163676E+02    -64.132    -54.182   -195.343     154
   155.00000 -0.191577E+02  0.203341E+02 -0.218127E+02  0.151550E+02 -0.163875E+02    -89.636    -75.683   -184.736     155
   156.00000 -0.191577E+02  0.207845E+02 -0.218127E+02  0.156054E+02 -0.164122E+02   -116.458    -96.915   -172.143     156
   157.00000 -0.229678E+02  0.211757E+02 -0.256227E+02  0.159966E+02 -0.164415E+02     -6.202    -11.093   -157.960     157
   158.00000 -0.229678E+02  0.216421E+02 -0.256227E+02  0.164630E+02 -0.164778E+02    -64.199    -52.727   -143.638     158
   159.00000 -0.229678E+02  0.222679E+02 -0.256227E+02  0.170888E+02 -0.165275E+02    -98.148    -79.887   -128.078     159
